PRES hPa,HGHT m,TEMP C,DWPT C,RELH %,MIXR g/kg,DRCT deg,SPED m/s,THTA K,THTE K,THTV K
912.9,873,35.8,2.1,12,4.86,290,4.1,317.1,333,318
912.5,888,35.7,2.1,12,4.87,291,4.1,317.1,333,318
912,892,35.6,2.1,12,4.88,292,4.1,317,332.9,318
911.6,896,35.6,2.1,12,4.89,292,4,317,332.9,317.9
911.1,901,35.5,2.1,12,4.9,293,4,316.9,332.9,317.9
910.7,905,35.4,2.1,12,4.9,294,4,316.9,332.9,317.8
910.2,909,35.3,2.2,13,4.91,295,4,316.9,332.9,317.8
909.8,914,35.2,2.2,13,4.92,295,3.9,316.8,332.8,317.8
909.4,919,35.1,2.2,13,4.93,296,3.9,316.8,332.8,317.7
908.9,924,35.1,2.2,13,4.93,297,3.9,316.7,332.8,317.7
908.5,928,35,2.2,13,4.94,298,3.9,316.7,332.8,317.6
908,930,34.9,2.2,13,4.94,299,3.8,316.6,332.7,317.6
907.6,932,34.8,2.2,13,4.95,300,3.8,316.6,332.7,317.5
907.1,934,34.7,2.2,13,4.96,301,3.8,316.6,332.7,317.5
906.7,937,34.6,2.3,13,4.97,301,3.8,316.5,332.7,317.5
906.3,941,34.6,2.3,13,4.97,302,3.8,316.5,332.6,317.4
905.8,947,34.5,2.3,13,4.97,303,3.7,316.4,332.6,317.4
905.4,952,34.4,2.3,13,4.98,304,3.7,316.4,332.6,317.3
904.9,958,34.3,2.3,13,4.99,305,3.7,316.4,332.6,317.3
904.5,964,34.2,2.3,13,4.99,306,3.7,316.3,332.5,317.3
904.1,970,34.1,2.3,13,5,307,3.7,316.3,332.5,317.2
903.6,975,34.1,2.3,14,5,308,3.7,316.2,332.5,317.2
903.2,980,34,2.3,14,5.01,309,3.7,316.2,332.4,317.1
902.7,985,33.9,2.3,14,5.01,310,3.6,316.2,332.4,317.1
902.3,989,33.8,2.3,14,5.01,311,3.6,316.1,332.4,317.1
901.9,994,33.7,2.3,14,5.02,312,3.6,316.1,332.4,317
901.4,999,33.6,2.3,14,5.02,313,3.6,316,332.3,317
901,1003,33.6,2.3,14,5.03,314,3.6,316,332.3,316.9
900.6,1008,33.5,2.3,14,5.03,314,3.6,315.9,332.3,316.9
900.1,1011,33.4,2.4,14,5.04,315,3.6,315.9,332.2,316.9
899.7,1015,33.3,2.4,14,5.04,316,3.6,315.8,332.2,316.8
899.2,1018,33.2,2.4,14,5.04,317,3.6,315.8,332.2,316.8
898.8,1022,33.1,2.4,14,5.05,318,3.6,315.8,332.1,316.7
898.4,1027,33.1,2.4,14,5.05,319,3.6,315.7,332.1,316.7
897.9,1032,33,2.4,14,5.05,320,3.6,315.7,332.1,316.7
897.5,1036,32.9,2.4,15,5.06,321,3.6,315.6,332,316.6
897.1,1040,32.8,2.4,15,5.06,322,3.6,315.6,332,316.6
896.6,1044,32.7,2.4,15,5.06,323,3.6,315.6,331.9,316.5
896.2,1048,32.6,2.4,15,5.07,324,3.6,315.5,331.9,316.5
895.7,1052,32.6,2.4,15,5.07,325,3.6,315.5,331.9,316.4
895.3,1055,32.5,2.4,15,5.07,326,3.6,315.4,331.8,316.4
894.9,1059,32.4,2.4,15,5.07,327,3.6,315.4,331.8,316.4
894.4,1062,32.3,2.4,15,5.07,328,3.6,315.3,331.8,316.3
894,1066,32.2,2.4,15,5.08,329,3.6,315.3,331.7,316.3
893.6,1070,32.1,2.4,15,5.08,330,3.7,315.3,331.7,316.2
893.1,1075,32.1,2.4,15,5.08,331,3.7,315.2,331.6,316.2
892.7,1079,32,2.4,15,5.08,332,3.7,315.2,331.6,316.1
892.3,1083,31.9,2.4,15,5.08,333,3.7,315.1,331.6,316.1
891.8,1087,31.8,2.4,15,5.09,334,3.7,315.1,331.5,316.1
891.4,1091,31.7,2.4,15,5.09,335,3.7,315.1,331.5,316
891,1095,31.6,2.4,16,5.09,336,3.7,315,331.4,316
890.5,1099,31.6,2.3,16,5.09,336,3.8,315,331.4,315.9
890.1,1103,31.5,2.3,16,5.09,337,3.8,314.9,331.4,315.9
889.7,1106,31.4,2.3,16,5.09,338,3.8,314.9,331.3,315.9
889.2,1109,31.3,2.3,16,5.09,339,3.8,314.8,331.3,315.8
888.8,1113,31.2,2.3,16,5.09,340,3.8,314.8,331.2,315.8
888.4,1117,31.1,2.3,16,5.09,341,3.9,314.8,331.2,315.7
887.9,1121,31.1,2.3,16,5.09,342,3.9,314.7,331.1,315.7
887.5,1126,31,2.3,16,5.1,342,3.9,314.7,331.1,315.6
887.1,1130,30.9,2.3,16,5.09,343,3.9,314.6,331.1,315.6
886.7,1134,30.9,2.3,16,5.1,344,3.9,314.6,331.1,315.6
886.3,1138,30.8,2.4,16,5.12,345,3.9,314.7,331.2,315.6
885.9,1141,30.8,2.4,16,5.13,346,3.8,314.7,331.2,315.6
885.6,1145,30.8,2.4,16,5.14,347,3.8,314.7,331.2,315.6
885.2,1149,30.8,2.4,16,5.13,348,3.7,314.7,331.2,315.7
884.9,1152,30.7,2.4,16,5.13,349,3.7,314.7,331.2,315.6
884.5,1156,30.7,2.3,16,5.12,350,3.6,314.7,331.2,315.6
884.2,1159,30.6,2.3,16,5.11,351,3.6,314.6,331.1,315.6
883.8,1163,30.6,2.3,16,5.12,352,3.5,314.6,331.1,315.6
883.3,1168,30.5,2.3,17,5.13,353,3.5,314.6,331.2,315.6
882.8,1173,30.5,2.3,17,5.13,354,3.4,314.6,331.2,315.6
882.4,1177,30.5,2.3,17,5.13,355,3.4,314.6,331.2,315.6
882,1181,30.4,2.3,17,5.12,356,3.3,314.6,331.2,315.6
881.6,1185,30.4,2.3,17,5.11,356,3.3,314.6,331.1,315.6
881.2,1189,30.3,2.2,17,5.1,357,3.3,314.6,331.1,315.6
880.9,1193,30.3,2.2,17,5.09,357,3.2,314.6,331,315.6
880.6,1196,30.3,2.2,17,5.09,357,3.2,314.6,331,315.6
880.3,1199,30.2,2.2,17,5.1,357,3.2,314.6,331.1,315.6
879.9,1202,30.2,2.3,17,5.12,357,3.2,314.6,331.1,315.6
879.6,1206,30.2,2.3,17,5.12,357,3.1,314.7,331.2,315.6
879.2,1210,30.1,2.3,17,5.13,357,3.1,314.7,331.2,315.6
878.7,1214,30.1,2.3,17,5.14,356,3.1,314.7,331.2,315.6
878.3,1219,30,2.3,17,5.13,355,3.1,314.6,331.2,315.6
877.8,1224,30,2.2,17,5.12,355,3.1,314.6,331.1,315.6
877.3,1229,29.9,2.2,17,5.1,354,3.1,314.6,331.1,315.6
876.7,1234,29.9,2.2,17,5.1,353,3.1,314.6,331.1,315.6
876.2,1240,29.8,2.1,17,5.1,352,3.1,314.6,331.1,315.6
875.7,1246,29.8,2.1,17,5.1,351,3.1,314.7,331.1,315.6
875.1,1251,29.8,2.1,17,5.09,350,3.1,314.7,331.1,315.7
874.6,1256,29.8,2,17,5.07,349,3,314.7,331.1,315.7
874.2,1261,29.7,2,17,5.05,348,3,314.7,331,315.7
873.7,1266,29.7,1.9,17,5.03,347,3,314.7,331,315.7
873.2,1270,29.6,1.9,17,5.04,346,3,314.7,331,315.7
872.8,1275,29.6,2,17,5.07,346,3,314.7,331.1,315.7
872.4,1279,29.5,2.1,17,5.1,345,3,314.7,331.1,315.7
872,1283,29.4,2.1,17,5.09,344,3,314.7,331.1,315.6
871.7,1286,29.4,2.1,17,5.1,344,3,314.7,331.1,315.6
871.4,1289,29.4,2.1,17,5.1,344,3,314.7,331.1,315.6
871.1,1291,29.3,2.1,17,5.11,343,3,314.7,331.1,315.6
870.8,1295,29.3,2.1,17,5.12,343,3,314.7,331.2,315.6
870.4,1299,29.3,2.1,18,5.13,343,2.9,314.7,331.2,315.6
870,1303,29.2,2.1,18,5.12,343,2.9,314.6,331.2,315.6
869.5,1308,29.2,2.1,18,5.12,343,2.9,314.6,331.1,315.6
869.1,1312,29.1,2.1,18,5.12,343,2.9,314.7,331.1,315.6
868.6,1317,29.1,2.1,18,5.11,343,2.9,314.7,331.2,315.6
868.2,1322,29.1,2.1,18,5.11,343,2.9,314.7,331.2,315.6
867.6,1328,29,2,18,5.11,344,2.9,314.7,331.2,315.7
866.9,1334,29,2,18,5.1,344,2.8,314.7,331.2,315.7
866.4,1340,28.9,2,18,5.1,344,2.8,314.7,331.1,315.7
866,1344,28.9,2,18,5.1,344,2.8,314.7,331.1,315.7
865.7,1347,28.9,2,18,5.1,345,2.8,314.7,331.1,315.7
865.4,1350,28.8,2,18,5.1,345,2.8,314.7,331.2,315.7
865,1354,28.8,2,18,5.11,346,2.8,314.7,331.2,315.7
864.6,1359,28.7,2,18,5.12,346,2.8,314.7,331.2,315.6
864.1,1364,28.7,2,18,5.12,346,2.8,314.7,331.2,315.6
863.5,1369,28.6,2,18,5.12,347,2.8,314.7,331.2,315.6
863,1375,28.5,2,18,5.11,347,2.8,314.7,331.2,315.6
862.5,1380,28.5,2,18,5.12,348,2.8,314.7,331.2,315.6
862,1385,28.4,2,18,5.12,348,2.8,314.7,331.2,315.6
861.4,1391,28.4,2,18,5.12,349,2.8,314.7,331.2,315.6
860.9,1396,28.3,1.9,18,5.11,350,2.7,314.7,331.1,315.6
860.4,1401,28.3,1.9,18,5.1,351,2.7,314.7,331.1,315.6
860,1406,28.3,1.9,18,5.09,352,2.7,314.7,331.1,315.6
859.6,1410,28.2,1.9,18,5.09,353,2.7,314.7,331.1,315.6
859.1,1415,28.2,1.9,18,5.1,354,2.7,314.7,331.1,315.6
858.6,1420,28.1,1.9,18,5.1,356,2.7,314.7,331.1,315.6
858.1,1425,28,1.9,18,5.11,357,2.6,314.7,331.1,315.6
857.5,1431,28,1.9,19,5.13,359,2.6,314.7,331.2,315.6
856.9,1438,27.9,1.9,19,5.14,1,2.6,314.7,331.2,315.7
856.2,1444,27.9,1.9,19,5.14,3,2.6,314.7,331.3,315.7
855.6,1451,27.9,1.9,19,5.14,5,2.6,314.7,331.3,315.7
855,1457,27.8,1.9,19,5.13,7,2.6,314.7,331.3,315.7
854.4,1463,27.8,1.9,19,5.14,9,2.6,314.8,331.3,315.7
853.9,1469,27.8,1.9,19,5.14,11,2.6,314.8,331.4,315.8
853.3,1474,27.7,1.9,19,5.15,14,2.6,314.8,331.4,315.8
852.8,1480,27.7,1.9,19,5.15,16,2.6,314.8,331.4,315.8
852.2,1486,27.6,1.9,19,5.14,18,2.6,314.9,331.4,315.8
851.6,1492,27.6,1.8,19,5.13,21,2.7,314.9,331.4,315.8
851,1498,27.5,1.8,19,5.14,23,2.7,314.9,331.4,315.8
850.4,1504,27.5,1.9,19,5.15,25,2.7,314.9,331.5,315.8
850,1509,27.4,1.9,19,5.15,25,2.7,314.9,331.5,315.8
849.9,1510,27.4,1.9,19,5.15,28,2.8,314.9,331.5,315.8
849.4,1516,27.4,1.9,19,5.16,30,2.8,314.8,331.5,315.8
848.9,1521,27.3,1.9,19,5.16,32,2.9,314.8,331.5,315.8
848.4,1525,27.2,1.9,19,5.17,34,2.9,314.8,331.5,315.8
847.9,1530,27.1,1.9,19,5.17,36,3,314.8,331.5,315.8
847.4,1536,27.1,1.9,20,5.17,38,3.1,314.8,331.4,315.7
846.9,1541,27,1.8,20,5.15,39,3.1,314.8,331.4,315.7
846.3,1547,27,1.6,19,5.09,41,3.2,314.8,331.2,315.8
845.7,1553,27,1.5,19,5.03,43,3.2,314.9,331.1,315.8
845.1,1560,27,1.4,19,5.03,45,3.3,314.9,331.1,315.9
844.5,1566,26.9,1.6,19,5.08,46,3.4,314.9,331.3,315.9
844,1572,26.8,1.7,20,5.11,48,3.4,314.9,331.4,315.9
843.4,1577,26.8,1.6,20,5.1,50,3.5,314.9,331.3,315.8
842.9,1583,26.7,1.4,19,5.03,51,3.5,314.9,331.1,315.8
842.3,1589,26.7,1,19,4.88,53,3.6,314.9,330.7,315.9
841.8,1595,26.8,0.3,18,4.65,55,3.6,315,330.1,315.9
841.2,1601,26.8,-0.1,17,4.5,57,3.7,315.1,329.7,316
840.6,1607,26.8,-0.4,17,4.43,58,3.7,315.2,329.6,316
840.1,1612,26.8,-0.6,17,4.35,60,3.8,315.2,329.4,316
839.6,1618,26.7,-0.7,17,4.32,62,3.8,315.2,329.3,316.1
839.1,1623,26.7,-0.7,17,4.33,64,3.9,315.3,329.4,316.1
838.6,1627,26.7,-0.7,17,4.35,65,3.9,315.3,329.4,316.1
838.2,1632,26.6,-0.7,17,4.35,67,4,315.3,329.4,316.1
837.8,1637,26.6,-0.7,17,4.34,69,4,315.3,329.4,316.1
837.3,1641,26.5,-0.7,17,4.33,70,4.1,315.3,329.4,316.1
836.9,1646,26.5,-0.8,17,4.31,72,4.1,315.3,329.3,316.1
836.5,1650,26.5,-0.9,17,4.29,74,4.1,315.3,329.3,316.1
836,1655,26.5,-1,16,4.24,75,4.2,315.4,329.2,316.2
835.6,1660,26.5,-1.1,16,4.21,76,4.2,315.4,329.2,316.2
835.1,1665,26.5,-1.1,16,4.21,78,4.2,315.5,329.2,316.3
834.6,1670,26.5,-1.1,16,4.22,79,4.2,315.5,329.3,316.3
834.2,1675,26.5,-1.1,16,4.22,80,4.2,315.5,329.3,316.3
833.7,1679,26.4,-1.1,16,4.24,81,4.2,315.5,329.4,316.4
833.3,1684,26.4,-1,17,4.28,82,4.2,315.5,329.5,316.3
832.9,1688,26.3,-0.8,17,4.32,82,4.2,315.5,329.6,316.3
832.4,1693,26.2,-0.8,17,4.34,83,4.2,315.4,329.6,316.3
831.9,1698,26.1,-0.8,17,4.35,83,4.2,315.4,329.6,316.2
831.4,1703,26.1,-0.8,17,4.35,83,4.1,315.4,329.6,316.2
831,1708,26,-0.8,17,4.34,83,4.1,315.4,329.5,316.2
830.5,1713,26,-0.9,17,4.32,83,4,315.4,329.5,316.2
830.2,1717,25.9,-1,17,4.29,83,3.9,315.4,329.4,316.2
829.8,1721,25.9,-1.1,17,4.27,83,3.9,315.4,329.3,316.2
829.4,1725,25.9,-1.1,17,4.26,82,3.8,315.4,329.3,316.2
828.9,1730,25.8,-1.1,17,4.26,82,3.7,315.4,329.3,316.2
828.5,1734,25.8,-1.1,17,4.26,81,3.6,315.4,329.3,316.3
828.1,1739,25.7,-1.1,17,4.25,80,3.5,315.4,329.3,316.2
827.6,1744,25.7,-1.2,17,4.23,79,3.4,315.4,329.2,316.2
827.1,1749,25.7,-1.4,17,4.18,78,3.3,315.5,329.1,316.3
826.6,1755,25.6,-1.7,16,4.09,77,3.2,315.5,328.9,316.3
826,1761,25.6,-2,16,3.99,76,3.1,315.6,328.6,316.3
825.5,1766,25.7,-2.4,16,3.87,74,3,315.6,328.3,316.4
825,1771,25.7,-2.7,15,3.79,73,2.9,315.7,328.2,316.4
824.6,1775,25.7,-2.9,15,3.76,72,2.8,315.8,328.1,316.5
824.2,1780,25.7,-2.9,15,3.75,71,2.7,315.8,328.1,316.5
823.8,1784,25.7,-2.9,15,3.76,69,2.6,315.8,328.2,316.6
823.4,1788,25.6,-2.9,15,3.75,68,2.5,315.8,328.2,316.6
823,1793,25.6,-3,15,3.71,67,2.4,315.9,328.1,316.6
822.6,1797,25.6,-3.2,15,3.68,66,2.3,315.9,328,316.6
822.2,1801,25.6,-3.3,15,3.64,65,2.2,315.9,327.9,316.6
821.9,1805,25.6,-3.4,15,3.61,64,2.1,315.9,327.8,316.6
821.5,1809,25.5,-3.5,14,3.6,63,2,315.9,327.8,316.6
821.1,1813,25.5,-3.5,15,3.6,62,2,315.9,327.8,316.6
820.7,1818,25.4,-3.6,14,3.56,62,1.9,315.9,327.7,316.6
820.2,1822,25.4,-4,14,3.46,61,1.8,316,327.4,316.6
819.8,1827,25.4,-4.2,14,3.42,61,1.7,316,327.3,316.7
819.4,1831,25.4,-4.1,14,3.44,60,1.7,316,327.4,316.7
819,1836,25.3,-4.1,14,3.44,60,1.6,316,327.4,316.7
818.6,1840,25.3,-4.1,14,3.44,59,1.5,316,327.4,316.7
818.2,1844,25.2,-4,14,3.46,59,1.5,316,327.4,316.7
817.8,1848,25.2,-4,14,3.47,58,1.4,316,327.4,316.7
817.4,1853,25.2,-4.1,14,3.46,57,1.4,316,327.4,316.7
816.9,1858,25.1,-4.1,14,3.44,56,1.3,316,327.4,316.7
816.4,1863,25.1,-4.3,14,3.41,54,1.3,316.1,327.3,316.7
815.9,1868,25.1,-4.2,14,3.42,53,1.3,316.1,327.4,316.7
815.5,1873,25,-4.1,14,3.45,51,1.2,316.1,327.5,316.7
815,1878,25,-4,14,3.48,49,1.2,316.1,327.5,316.7
814.6,1883,24.9,-3.9,15,3.51,47,1.2,316,327.6,316.7
814.2,1887,24.8,-3.9,15,3.51,45,1.1,316,327.6,316.7
813.8,1891,24.8,-4,15,3.48,42,1.1,316,327.5,316.7
813.4,1896,24.8,-4.2,14,3.44,40,1.1,316,327.4,316.7
812.9,1900,24.7,-4.4,14,3.39,37,1.1,316,327.2,316.7
812.5,1905,24.7,-4.7,14,3.33,35,1.1,316.1,327.1,316.7
812.1,1909,24.7,-4.8,14,3.3,33,1.1,316.1,327,316.7
811.8,1913,24.7,-4.8,14,3.29,31,1.1,316.1,327,316.8
811.4,1917,24.7,-4.8,14,3.3,28,1.1,316.1,327.1,316.8
811,1921,24.6,-4.8,14,3.3,27,1,316.1,327.1,316.8
810.6,1925,24.6,-4.8,14,3.3,25,1,316.1,327.1,316.8
810.2,1930,24.6,-4.8,14,3.3,24,1,316.2,327.1,316.8
809.7,1935,24.5,-4.9,14,3.28,23,1,316.1,327,316.8
809.2,1941,24.4,-5.1,14,3.24,23,1,316.1,326.9,316.8
808.7,1946,24.4,-5.3,13,3.18,23,0.9,316.2,326.7,316.8
808.2,1951,24.4,-5.6,13,3.11,23,0.9,316.2,326.5,316.8
807.8,1956,24.4,-5.7,13,3.09,24,0.9,316.2,326.5,316.8
807.4,1960,24.3,-5.7,13,3.09,26,0.8,316.2,326.5,316.8
807,1965,24.3,-5.6,13,3.11,28,0.8,316.2,326.6,316.8
806.5,1970,24.3,-5.6,13,3.12,30,0.8,316.3,326.6,316.9
806,1975,24.2,-5.7,13,3.1,34,0.7,316.3,326.6,316.9
805.5,1980,24.2,-5.9,13,3.05,38,0.7,316.3,326.4,316.8
805,1986,24.1,-6.2,13,2.99,42,0.7,316.3,326.2,316.9
804.5,1991,24.1,-6.4,13,2.94,47,0.6,316.3,326.1,316.9
804.1,1996,24.1,-6.5,13,2.91,52,0.6,316.3,326,316.9
803.6,2001,24,-6.5,13,2.92,57,0.6,316.3,326,316.9
803.1,2006,24,-6.4,13,2.94,62,0.6,316.3,326.1,316.9
802.7,2011,23.9,-6.3,13,2.97,67,0.6,316.3,326.2,316.9
802.2,2016,23.9,-6.3,13,2.97,71,0.6,316.3,326.2,316.9
801.8,2021,23.8,-6.5,13,2.93,75,0.6,316.3,326.1,316.9
801.4,2025,23.8,-6.5,13,2.94,79,0.6,316.4,326.1,316.9
801,2029,23.8,-6.2,13,3,82,0.6,316.3,326.3,316.9
800.6,2033,23.7,-6,13,3.04,84,0.6,316.3,326.4,316.9
800.3,2038,23.6,-6,13,3.04,86,0.5,316.3,326.4,316.9
799.9,2042,23.6,-6,13,3.04,87,0.5,316.3,326.4,316.9
799.5,2046,23.6,-6.1,13,3.04,88,0.5,316.3,326.4,316.9
799.2,2050,23.5,-6,13,3.05,89,0.5,316.3,326.4,316.9
798.8,2054,23.5,-6,14,3.06,89,0.4,316.3,326.5,316.9
798.3,2059,23.4,-6,14,3.06,88,0.4,316.3,326.5,316.9
797.9,2064,23.4,-6,14,3.07,87,0.3,316.3,326.5,316.9
797.3,2070,23.3,-6,14,3.07,83,0.3,316.3,326.5,316.9
796.7,2076,23.2,-6,14,3.06,77,0.2,316.3,326.5,316.9
796,2083,23.2,-6,14,3.06,66,0.2,316.3,326.4,316.9
795.5,2090,23.1,-6.1,14,3.04,44,0.1,316.3,326.4,316.9
795,2095,23.1,-6.2,14,3.03,14,0.1,316.3,326.4,316.9
794.6,2099,23,-6.2,14,3.02,349,0.2,316.3,326.4,316.9
794.2,2104,23,-6.2,14,3.03,336,0.2,316.3,326.4,316.9
793.8,2109,22.9,-6.2,14,3.03,329,0.3,316.3,326.3,316.9
793.4,2113,22.9,-6.3,14,3.01,325,0.4,316.3,326.3,316.8
793,2117,22.9,-6.3,14,3.01,323,0.4,316.3,326.3,316.9
792.7,2120,22.8,-6.3,14,3.02,322,0.5,316.3,326.3,316.9
792.4,2123,22.8,-6.2,14,3.03,322,0.6,316.3,326.4,316.9
792,2128,22.8,-6.2,14,3.03,323,0.7,316.3,326.4,316.9
791.5,2133,22.7,-6.2,14,3.04,324,0.7,316.3,326.4,316.9
791.1,2138,22.7,-6.2,14,3.03,324,0.8,316.3,326.4,316.9
790.6,2143,22.7,-6.3,14,3.03,325,0.9,316.3,326.4,316.9
790.2,2148,22.6,-6.2,14,3.03,327,1,316.3,326.4,316.9
789.7,2153,22.6,-6.2,14,3.05,328,1.1,316.3,326.5,316.9
789.2,2158,22.5,-6.1,14,3.07,329,1.2,316.3,326.5,316.9
788.7,2163,22.4,-6.1,14,3.07,330,1.2,316.3,326.5,316.9
788.3,2169,22.4,-6.3,14,3.03,331,1.3,316.3,326.4,316.9
787.8,2174,22.4,-6.5,14,2.97,332,1.4,316.4,326.3,316.9
787.4,2178,22.4,-6.9,14,2.9,332,1.5,316.4,326,317
787,2183,22.4,-7.1,13,2.84,333,1.6,316.4,325.9,317
786.6,2187,22.3,-7.3,13,2.81,333,1.7,316.5,325.9,317
786.2,2191,22.3,-7.4,13,2.79,334,1.8,316.5,325.8,317
785.8,2196,22.3,-7.6,13,2.74,334,1.8,316.5,325.7,317
785.4,2201,22.3,-8.2,12,2.62,334,1.9,316.5,325.3,317
784.9,2206,22.3,-9,11,2.45,335,2,316.6,324.9,317.1
784.4,2211,22.4,-10.2,10,2.24,335,2,316.8,324.4,317.2
783.9,2217,22.5,-10.8,10,2.13,334,2.1,316.9,324.2,317.4
783.4,2222,22.5,-10.9,10,2.13,334,2.1,317,324.2,317.4
783,2227,22.5,-10.9,10,2.13,334,2.2,317.1,324.3,317.5
782.6,2231,22.5,-10.9,10,2.13,334,2.2,317.1,324.3,317.5
782.3,2235,22.5,-10.8,10,2.14,333,2.2,317.1,324.4,317.5
781.9,2239,22.4,-10.8,10,2.14,333,2.3,317.1,324.4,317.5
781.6,2242,22.4,-10.9,10,2.13,332,2.3,317.1,324.4,317.5
781.3,2245,22.4,-10.9,10,2.13,332,2.3,317.1,324.4,317.6
781,2249,22.4,-10.9,10,2.13,331,2.3,317.2,324.4,317.6
780.7,2252,22.4,-10.8,10,2.14,331,2.3,317.2,324.4,317.6
780.3,2257,22.4,-10.7,10,2.17,330,2.3,317.2,324.6,317.6
779.8,2262,22.4,-10.3,10,2.23,329,2.3,317.3,324.8,317.7
779.4,2267,22.4,-10.1,11,2.28,329,2.3,317.3,325,317.8
778.9,2272,22.3,-9.9,11,2.31,328,2.3,317.3,325.1,317.8
778.5,2277,22.3,-9.8,11,2.33,327,2.3,317.4,325.2,317.8
778,2282,22.3,-9.7,11,2.36,326,2.3,317.4,325.4,317.8
777.6,2286,22.2,-9.6,11,2.38,325,2.3,317.4,325.4,317.9
777.2,2291,22.2,-9.5,11,2.39,324,2.3,317.4,325.5,317.9
776.9,2295,22.2,-9.5,11,2.39,323,2.3,317.4,325.5,317.9
776.5,2299,22.1,-9.4,11,2.41,322,2.3,317.4,325.6,317.9
776.2,2302,22.1,-9.3,11,2.44,320,2.3,317.4,325.6,317.9
775.9,2306,22.1,-9.2,12,2.46,319,2.3,317.4,325.7,317.9
775.5,2310,22,-9.1,12,2.47,318,2.3,317.4,325.8,317.9
775.1,2314,22,-9.1,12,2.48,316,2.4,317.4,325.8,317.9
774.8,2318,22,-9,12,2.49,315,2.4,317.4,325.8,317.9
774.4,2322,22,-8.9,12,2.51,313,2.4,317.5,325.9,317.9
774.1,2326,21.9,-8.8,12,2.53,312,2.4,317.5,326,318
773.7,2330,21.9,-8.8,12,2.55,310,2.4,317.5,326.1,318
773.4,2334,21.9,-8.7,12,2.56,308,2.4,317.5,326.1,318
773,2339,21.8,-8.6,12,2.58,307,2.5,317.5,326.2,318
772.6,2343,21.8,-8.5,12,2.6,305,2.5,317.5,326.2,318
772.2,2347,21.7,-8.5,12,2.6,304,2.5,317.5,326.2,318
771.8,2352,21.7,-8.5,12,2.61,302,2.5,317.5,326.2,318
771.4,2356,21.6,-8.5,13,2.62,301,2.6,317.5,326.3,318
771.1,2360,21.6,-8.4,13,2.63,299,2.6,317.5,326.3,318
770.7,2363,21.6,-8.4,13,2.63,298,2.7,317.5,326.3,318
770.4,2368,21.5,-8.4,13,2.63,297,2.7,317.5,326.3,318
770,2372,21.5,-8.4,13,2.63,295,2.8,317.5,326.3,318
769.5,2377,21.4,-8.4,13,2.64,294,2.8,317.5,326.3,318
769,2382,21.4,-8.4,13,2.64,294,2.9,317.5,326.3,318
768.5,2388,21.3,-8.3,13,2.65,293,2.9,317.4,326.3,317.9
768,2394,21.2,-8.3,13,2.66,292,3,317.4,326.4,317.9
767.5,2400,21.2,-8.3,13,2.67,292,3,317.4,326.4,317.9
767,2405,21.1,-8.2,13,2.68,291,3.1,317.5,326.5,318
766.6,2410,21.1,-8.2,13,2.68,291,3.1,317.5,326.5,318
766.1,2415,21.1,-8.3,13,2.67,291,3.2,317.5,326.5,318
765.6,2421,21,-8.2,13,2.69,292,3.3,317.5,326.5,318
765.2,2426,20.9,-8,14,2.73,292,3.3,317.5,326.6,318
764.8,2430,20.9,-7.8,14,2.79,292,3.4,317.5,326.8,318
764.4,2435,20.9,-7.6,14,2.81,293,3.4,317.5,326.9,318
764,2439,20.8,-7.7,14,2.81,294,3.5,317.5,326.9,318
763.6,2444,20.8,-7.6,14,2.83,294,3.6,317.5,326.9,318
763.1,2449,20.7,-7.4,14,2.87,295,3.6,317.5,327.1,318
762.6,2456,20.7,-7.3,15,2.91,296,3.7,317.5,327.2,318
762,2462,20.6,-7.2,15,2.92,297,3.7,317.5,327.3,318
761.4,2468,20.6,-7.3,15,2.91,298,3.8,317.5,327.2,318.1
760.9,2474,20.5,-7.3,15,2.9,299,3.8,317.5,327.2,318.1
760.4,2479,20.5,-7.3,15,2.9,300,3.9,317.5,327.2,318.1
760,2484,20.4,-7.3,15,2.91,301,3.9,317.5,327.2,318.1
759.6,2489,20.4,-7.2,15,2.92,302,4,317.5,327.3,318
759.1,2494,20.3,-7.1,15,2.95,302,4,317.5,327.4,318.1
758.7,2500,20.3,-6.9,15,2.99,303,4,317.5,327.5,318.1
758.2,2505,20.2,-6.8,16,3.04,304,4.1,317.5,327.7,318.1
757.8,2509,20.2,-6.7,16,3.06,304,4.1,317.5,327.8,318.1
757.5,2513,20.2,-6.7,16,3.06,304,4.1,317.5,327.7,318.1
757.1,2517,20.1,-6.7,16,3.05,305,4.1,317.5,327.7,318.1
756.8,2520,20.1,-6.7,16,3.06,305,4.1,317.5,327.7,318.1
756.5,2524,20,-6.7,16,3.06,304,4.1,317.5,327.7,318.1
756.1,2528,20,-6.7,16,3.06,304,4.1,317.5,327.7,318.1
755.7,2533,19.9,-6.8,16,3.05,304,4.1,317.5,327.7,318.1
755.3,2538,19.9,-6.8,16,3.05,303,4.1,317.5,327.6,318.1
754.8,2543,19.8,-6.8,16,3.05,302,4.1,317.5,327.7,318.1
754.4,2548,19.8,-6.7,16,3.06,301,4.1,317.5,327.7,318.1
754,2553,19.7,-6.7,16,3.06,300,4.1,317.5,327.7,318.1
753.5,2558,19.7,-6.7,16,3.07,299,4.1,317.5,327.7,318.1
753,2564,19.6,-6.5,16,3.11,298,4.1,317.5,327.8,318.1
752.5,2570,19.5,-6.3,17,3.17,296,4,317.5,328,318.1
752,2576,19.5,-6,17,3.26,295,4,317.5,328.3,318.1
751.5,2582,19.5,-5.6,18,3.35,293,4,317.5,328.6,318.2
751,2587,19.4,-5.5,18,3.38,292,4,317.5,328.7,318.2
750.6,2592,19.4,-5.5,18,3.38,290,4,317.5,328.7,318.2
750.2,2596,19.3,-5.5,18,3.38,289,4,317.5,328.7,318.2
749.9,2600,19.3,-5.5,18,3.39,287,4,317.5,328.7,318.1
